Wavelength,Count
350,0.74
351,-1.68
352,-1.05
353,1.46
354,0.53
355,-0.97
356,4.31
357,1.54
358,5.15
359,-0.61
360,1.77
361,0.52
362,3.6
363,6.07
364,4.38
365,0.93
366,3.26
367,2.37
368,3.84
369,2.19
370,2.32
371,5.53
372,0.41
373,3.66
374,0.95
375,2.49
376,3.3
377,0.56
378,3.41
379,3.06
380,2.53
381,3.24
382,1.82
383,7.42
384,2.97
385,5.03
386,0.61
387,2.83
388,6.32
389,3.44
390,2.27
391,2.37
392,2.4
393,0.37
394,1.75
395,-0.57
396,3.61
397,4.65
398,5.23
399,6.1
400,2.94
401,3.6
402,3.7
403,5.15
404,4.4
405,4.14
406,4.52
407,4.01
408,4.02
409,4.32
410,3.48
411,4.59
412,9.63
413,6.52
414,4.93
415,4.86
416,4.45
417,6.25
418,5.81
419,6.45
420,7.14
421,7.87
422,8.44
423,4.39
424,5.76
425,7.37
426,6.13
427,-4.23
428,9.52
429,8.39
430,7.97
431,5.13
432,10.82
433,5.46
434,11.51
435,7.45
436,11.01
437,7.83
438,12.5
439,9.09
440,8.13
441,12.31
442,11.49
443,9.66
444,9.87
445,12.23
446,12.83
447,9.85
448,12.26
449,10.82
450,16.69
451,14.51
452,12.44
453,13.2
454,11.96
455,15.17
456,12.93
457,13.57
458,11.45
459,18.19
460,16.3
461,16.47
462,16.18
463,16.37
464,17.93
465,16.43
466,17.53
467,19.64
468,23.36
469,22.52
470,21.57
471,27.15
472,28.36
473,27.88
474,26.18
475,30.8
476,27.46
477,30.63
478,33.74
479,35.44
480,32.54
481,41.82
482,40.53
483,45.43
484,46.18
485,48.1
486,47.48
487,50.43
488,55.63
489,60.68
490,56.32
491,63.46
492,63.64
493,67.8
494,68.69
495,67.93
496,76.08
497,78.21
498,81.8
499,85.58
500,91.96
501,91.43
502,93.21
503,94.97
504,97.93
505,106.65
506,98.04
507,112.62
508,108.23
509,109.83
510,117.35
511,119.18
512,119.46
513,124.81
514,131.7
515,136.11
516,127.82
517,132.98
518,136.44
519,141.52
520,142.11
521,144.38
522,151.27
523,152.57
524,156.83
525,154.79
526,158.4
527,164.54
528,171.46
529,169.21
530,173.09
531,176.17
532,185.05
533,176.42
534,187.54
535,196.31
536,198.13
537,205.46
538,198.12
539,202.27
540,215.33
541,212.03
542,221.27
543,221.28
544,226
545,230.27
546,234.81
547,240.88
548,243.41
549,247.15
550,253.93
551,252.2
552,260.86
553,257.41
554,267.41
555,266.86
556,274.97
557,274.59
558,289.62
559,293.51
560,286.15
561,287.6
562,301.47
563,305.38
564,307.87
565,319.65
566,314.78
567,310.61
568,313.13
569,320.5
570,325.71
571,337.19
572,332.33
573,337.68
574,337.72
575,346.72
576,340.17
577,343.25
578,347.42
579,351.35
580,351.76
581,367.01
582,366.85
583,374.36
584,377
585,383.9
586,389.87
587,387.44
588,400.73
589,394.49
590,410.55
591,401.05
592,413.18
593,415.78
594,419.37
595,428.34
596,421.61
597,437.42
598,430.44
599,446.51
600,449.79
601,455.18
602,465.75
603,460.38
604,455.59
605,472.32
606,482.61
607,492.1
608,499.46
609,505.3
610,505.03
611,500.45
612,518.29
613,521.04
614,513.91
615,517.05
616,524.36
617,528.11
618,518.81
619,527.44
620,536.83
621,527.89
622,537.37
623,540.47
624,549.07
625,555.44
626,547.48
627,560.35
628,555.83
629,560.2
630,567.55
631,567.71
632,577.24
633,582.09
634,589.2
635,570.78
636,589.61
637,580.85
638,610.81
639,583.95
640,604.04
641,613.3
642,601.14
643,603.09
644,611
645,619.59
646,618.34
647,617.74
648,629.38
649,627.07
650,631.66
651,633.76
652,643.29
653,633.4
654,643.57
655,637.21
656,641.62
657,670.01
658,661.37
659,657.79
660,642.39
661,650.83
662,667.12
663,664.9
664,672.36
665,673.38
666,667.81
667,674.1
668,669.98
669,671.98
670,698.94
671,674.32
672,680.49
673,683.04
674,691.88
675,705.47
676,681.16
677,698.93
678,690.98
679,687.7
680,692.22
681,697.29
682,701.25
683,689.08
684,702.91
685,701.67
686,704.45
687,700.27
688,721.12
689,699.95
690,704.91
691,697.5
692,711.82
693,684.42
694,713.26
695,700.31
696,705.54
697,698.95
698,702.37
699,707.06
700,701.89
701,706.81
702,733.41
703,711.91
704,677.93
705,709.78
706,718.02
707,687.45
708,710.57
709,713.81
710,725.69
711,718.41
712,714.49
713,725.39
714,704.52
715,723.79
716,726.93
717,712.9
718,722.98
719,719.31
720,728.14
721,725.01
722,742.18
723,731.75
724,717.37
725,722.85
726,728.38
727,733.55
728,735.54
729,738.86
730,718.69
731,729.36
732,742.67
733,735.77
734,711.3
735,717.76
736,739.75
737,718.04
738,728.55
739,733.43
740,747.59
741,722.77
742,723.62
743,723.33
744,721.75
745,720.14
746,740.64
747,718.35
748,711.35
749,714.49
750,707.9
751,699.91
752,706.35
753,694.84
754,709.39
755,699
756,699.46
757,675.78
758,680.81
759,690.9
760,678.41
761,678.37
762,672.98
763,653.68
764,655.22
765,664.58
766,650.77
767,658.29
768,660.72
769,659.61
770,644.75
771,647.75
772,643.11
773,635.48
774,624.93
775,628.51
776,592.03
777,630.46
778,625.29
779,619.82
780,618.58
781,615.64
782,603.68
783,619.98
784,615.5
785,630.43
786,618.13
787,642.19
788,653.56
789,661.39
790,663.12
791,668.83
792,670.76
793,661.32
794,689.51
795,680.48
796,677.28
797,688.27
798,681.24
799,667.98
800,683.36
801,674.53
802,677.17
803,682.45
804,692.9
805,687.79
806,668.26
807,664.43
808,674.37
809,676.44
810,655.59
811,651.53
812,658.95
813,646.5
814,649.21
815,660.11
816,655.42
817,654.35
818,661.87
819,631.65
820,634.81
821,635.22
822,624.22
823,620.87
824,602.7
825,617.62
826,609.41
827,622.15
828,598.84
829,607.76
830,607.1
831,602.51
832,591.08
833,605.26
834,599.4
835,594.93
836,581.34
837,592.62
838,607.99
839,593.1
840,580.5
841,581.25
842,568.49
843,564.32
844,574.98
845,565.28
846,560.66
847,560.58
848,567.91
849,542.52
850,550.76
851,554.63
852,548.33
853,555.17
854,547.53
855,520.38
856,519.41
857,523.75
858,518.07
859,512.96
860,522.26
861,515.14
862,516.63
863,505.62
864,490.9
865,484.36
866,481.59
867,486.44
868,480.59
869,473.62
870,478.72
871,482.12
872,475.74
873,478.91
874,460.36
875,455.44
876,458.47
877,436.77
878,450.38
879,449.39
880,445
881,426.81
882,413.98
883,432.09
884,409.58
885,414.89
886,389.38
887,385.09
888,390.08
889,394.82
890,385.56
891,389.01
892,387.06
893,373
894,378.51
895,388.64
896,389.55
897,387.7
898,386.8
899,390.49
900,382.62
901,399.83
902,400.84
903,395.98
904,400.9
905,408.16
906,407.87
907,416.24
908,398.45
909,406.75
910,406.7
911,393.49
912,409.42
913,396.95
914,405.22
915,406.74
916,388.4
917,386.03
918,385.1
919,388.73
920,386.32
921,372.26
922,367.31
923,377.19
924,362.62
925,362.79
926,349.9
927,348.74
928,355.21
929,341.68
930,332.97
931,336.13
932,324.51
933,306.34
934,297.56
935,310.97
936,301
937,295.61
938,286.44
939,271.08
940,285.87
941,278.22
942,263.61
943,270.84
944,260.25
945,248.66
946,249.52
947,246.92
948,237.04
949,229.19
950,217.76
951,221.63
952,213.46
953,214.45
954,205.09
955,206.53
956,211.37
957,204.93
958,197.56
959,194.11
960,192.71
961,187.13
962,193.23
963,172.46
964,167.06
965,169.54
966,165.32
967,162.18
968,158.76
969,157.84
970,147.6
971,149.83
972,141.78
973,141.97
974,135.44
975,134.33
976,135.22
977,124.65
978,124.81
979,126.33
980,113.66
981,120.27
982,117.74
983,112.73
984,104.58
985,110.45
986,109.75
987,101.13
988,103.66
989,95.36
990,99.84
991,80.78
992,89.77
993,79.23
994,85.86
995,80.36
996,81.45
997,80.57
998,79.24
999,71.24
1000,70.68