Wavelength,Count
350,2.4
351,-0.14
352,-1.48
353,-0.42
354,-0.36
355,5.33
356,2.98
357,7
358,2.69
359,3.53
360,6.1
361,5.67
362,5.73
363,9.18
364,11.53
365,14.16
366,16.58
367,10.02
368,17.72
369,8.55
370,17.1
371,18.35
372,14.56
373,16.61
374,19.15
375,21.72
376,22.42
377,23.81
378,24.8
379,24.69
380,21.46
381,24.93
382,28.72
383,32.05
384,33.78
385,34.15
386,32.69
387,34.99
388,39.63
389,38.6
390,46.66
391,45.41
392,49.69
393,51
394,56.71
395,56.6
396,55.77
397,59.26
398,58.62
399,54.38
400,61.87
401,65.32
402,63.51
403,70.4
404,69.95
405,78.76
406,83.2
407,80.32
408,84.9
409,87.21
410,94.26
411,90.01
412,91.44
413,98.45
414,91.55
415,101.88
416,105.38
417,105.69
418,117.16
419,106.49
420,114.43
421,120.64
422,115.57
423,123.81
424,136.99
425,132.62
426,135.05
427,141.16
428,152.35
429,150.3
430,153.27
431,161.2
432,167.75
433,165.18
434,174.21
435,184.02
436,192.82
437,192.51
438,199.55
439,207.13
440,219.88
441,227.55
442,236.77
443,242.45
444,243.26
445,249.04
446,251.85
447,261.5
448,269.08
449,267.16
450,279.8
451,276.22
452,290.81
453,291.21
454,305.55
455,311.86
456,315.67
457,315.3
458,323.57
459,340.77
460,353.97
461,367.07
462,382.01
463,385.94
464,400.8
465,404.57
466,421.11
467,449.32
468,469.92
469,468.2
470,506.05
471,529.57
472,532.1
473,563.76
474,588.08
475,621.21
476,667.04
477,679.07
478,688.7
479,748.81
480,801.06
481,830.83
482,877.23
483,950
484,950.63
485,955.23
486,986.73
487,1035.64
488,1117.19
489,1176.29
490,1211.81
491,1185.36
492,1242.21
493,1306.52
494,1342.06
495,1388.69
496,1457.45
497,1541.82
498,1576.13
499,1593.78
500,1688.54
501,1727.56
502,1750.05
503,1795.78
504,1890.36
505,1895.5
506,1907.46
507,1938.09
508,1999.61
509,2024.39
510,2035.65
511,2061.18
512,2148.53
513,2130.77
514,2207
515,2160.23
516,2230.15
517,2256.68
518,2327.83
519,2378.46
520,2418.64
521,2411.75
522,2455.62
523,2427.98
524,2503.86
525,2569.24
526,2576.17
527,2589.16
528,2615.47
529,2647.19
530,2678.24
531,2725.73
532,2756.98
533,2749.7
534,2741.92
535,2846.71
536,2883.92
537,2892.51
538,2987.7
539,3004.03
540,3020.38
541,3100.18
542,3057.37
543,3113.35
544,3071.21
545,3151.71
546,3121.25
547,3147.45
548,3237.94
549,3220.45
550,3264.16
551,3270.06
552,3247.69
553,3293.6
554,3278.37
555,3343.38
556,3313.34
557,3350.09
558,3388.75
559,3375.1
560,3338.89
561,3418.13
562,3386.81
563,3439.35
564,3423.87
565,3407.54
566,3408.42
567,3400
568,3457.03
569,3503.21
570,3522.61
571,3488.01
572,3494.08
573,3464.1
574,3475.15
575,3519.33
576,3487.64
577,3545.24
578,3623.39
579,3539.4
580,3558.38
581,3552.86
582,3571.56
583,3582.93
584,3583.71
585,3638.17
586,3663.5
587,3643.6
588,3605.23
589,3618.11
590,3685.88
591,3677.94
592,3667.11
593,3729.9
594,3648.23
595,3739.77
596,3771.05
597,3743.57
598,3731.42
599,3710.38
600,3722.14
601,3746.97
602,3750.54
603,3775.72
604,3781.62
605,3748.19
606,3806.37
607,3838.68
608,3840.01
609,3815.5
610,3810.67
611,3832.29
612,3850.43
613,3830.77
614,3814.08
615,3855.13
616,3845.5
617,3785.82
618,3820.89
619,3801.5
620,3821.27
621,3863.16
622,3852.86
623,3852.74
624,3817.44
625,3841.71
626,3855.45
627,3845.19
628,3799.92
629,3825.56
630,3839
631,3828.89
632,3824.88
633,3830.34
634,3852.15
635,3848.05
636,3852.83
637,3862.97
638,3831.79
639,3878.65
640,3860.18
641,3842.81
642,3859.67
643,3850.5
644,3834.54
645,3871.84
646,3843.22
647,3882.66
648,3819.8
649,3902.53
650,3865.36
651,3860.11
652,3890.7
653,3881.99
654,3866.89
655,3862.98
656,3845.73
657,3875.11
658,3843.02
659,3848.97
660,3879.15
661,3854.28
662,3839.75
663,3878.6
664,3834.16
665,3827.95
666,3835.33
667,3845.53
668,3846.49
669,3875.56
670,3823.52
671,3809.28
672,3837.74
673,3834.15
674,3858.17
675,3826.89
676,3857.11
677,3821.27
678,3813.95
679,3806.31
680,3801.98
681,3804.49
682,3801.06
683,3780.11
684,3778.8
685,3773.14
686,3770.6
687,3781.7
688,3781.3
689,3774.15
690,3751.16
691,3748.71
692,3779.59
693,3710.3
694,3717.36
695,3693.61
696,3736.4
697,3772.8
698,3704.24
699,3733.08
700,3729.99
701,3690.78
702,3678.25
703,3649.37
704,3690.49
705,3665.56
706,3631.14
707,3701.24
708,3658.61
709,3686.34
710,3613.88
711,3599.2
712,3631.41
713,3609.84
714,3642.04
715,3612.82
716,3579.73
717,3606.1
718,3654.75
719,3595.79
720,3621.02
721,3620.01
722,3577.55
723,3637.25
724,3630.55
725,3607.3
726,3604.12
727,3606.93
728,3594.31
729,3569.19
730,3538.29
731,3562.88
732,3520.24
733,3541.13
734,3567.61
735,3538.39
736,3586.79
737,3569.91
738,3513.81
739,3449.59
740,3459.04
741,3500.03
742,3576.99
743,3442.06
744,3437.26
745,3436.17
746,3420.67
747,3439.66
748,3423.93
749,3418.47
750,3466.23
751,3396.41
752,3367.12
753,3275.57
754,3301.05
755,3344.12
756,3262.65
757,3245.37
758,3277.47
759,3235.14
760,3212
761,3174.57
762,3244.62
763,3143.68
764,3086.82
765,3143.51
766,3134.55
767,3204.64
768,3094.73
769,3050.2
770,3045.46
771,3006.17
772,3084.64
773,2976.76
774,2920.33
775,2925.08
776,2898.19
777,2905.04
778,2879.48
779,2919.53
780,2903.73
781,2808.04
782,2817.87
783,2805.44
784,2868.02
785,2903.38
786,2808.42
787,2808
788,2875.47
789,2826.2
790,2828.78
791,2906.14
792,2959.01
793,2975.96
794,2882.48
795,2897.67
796,2855.27
797,2867.83
798,2864.65
799,2946.33
800,2935.15
801,2909.18
802,2835.59
803,2867.85
804,2910.56
805,2938.3
806,2960.97
807,2850.15
808,2750.56
809,2824.29
810,2808.33
811,2728.08
812,2681.21
813,2806.3
814,2724.89
815,2751.89
816,2738.07
817,2750.84
818,2691.9
819,2637.13
820,2604.89
821,2547.06
822,2627.78
823,2601.85
824,2516.85
825,2491.56
826,2525.71
827,2557.48
828,2517.8
829,2464.42
830,2420.82
831,2369.96
832,2343.75
833,2343.3
834,2388.21
835,2349.36
836,2311.88
837,2316.6
838,2216.88
839,2212.14
840,2221.61
841,2166.68
842,2246.32
843,2194.41
844,2186.01
845,2125.57
846,2117.34
847,2063.74
848,2024.76
849,1993.65
850,1996.82
851,2022.73
852,1950.15
853,1950.57
854,1868.3
855,1869.85
856,1811.96
857,1710.82
858,1702.01
859,1710.46
860,1677.59
861,1620.31
862,1613.07
863,1558.97
864,1516.42
865,1525.74
866,1510.71
867,1458.56
868,1465.08
869,1375.78
870,1351.87
871,1316.08
872,1315.29
873,1313.09
874,1223.16
875,1171.45
876,1194.69
877,1179.16
878,1155.35
879,1166.18
880,1126.94
881,1061.46
882,1036.19
883,1006.18
884,956.19
885,947.3
886,923.94
887,901.04
888,881.66
889,893.25
890,866.46
891,835.31
892,825.93
893,805.06
894,821.94
895,796.88
896,789.3
897,781.07
898,771.76
899,784.15
900,769.79
901,769.24
902,763.22
903,751.1
904,767.95
905,759.57
906,773.37
907,768.24
908,746.75
909,765.64
910,735.3
911,749.5
912,739.36
913,748.87
914,747.36
915,749.58
916,745.91
917,731.16
918,702.95
919,682.68
920,682.67
921,671.91
922,674.96
923,675.86
924,640.63
925,651.72
926,631.75
927,625.58
928,632.93
929,629.5
930,614.35
931,596.37
932,583.06
933,586.55
934,572.79
935,558.68
936,551.23
937,531.62
938,517.59
939,506.81
940,520.1
941,503.09
942,465.36
943,488.52
944,459.18
945,460.36
946,446.75
947,445.82
948,429.66
949,425.99
950,420.15
951,406.41
952,404.56
953,402.6
954,397.1
955,375.01
956,366.48
957,362.76
958,344.51
959,331.09
960,327.07
961,323.07
962,318.26
963,320.6
964,306.78
965,299.71
966,296.84
967,290.69
968,290.3
969,278.95
970,282.44
971,269.88
972,251.14
973,254.4
974,248.79
975,244.94
976,233.45
977,242.98
978,225.46
979,233.52
980,220.47
981,221.38
982,208.53
983,203.41
984,199.42
985,191.57
986,200.95
987,186.18
988,181.87
989,176.44
990,167.34
991,164.24
992,154.35
993,148.73
994,149.08
995,149.35
996,140.58
997,140.37
998,131.12
999,128.61
1000,127.7